time,amplitude
0,108.90004457908347
0.0001,108.96816292054774
0.0002,109.03061849143751
0.00030000000000000003,109.08740872550334
0.0004,109.13853147212242
0.0005,109.18398499646578
0.0006000000000000001,109.22376797963307
0.0007000000000000001,109.25787951875462
0.0008000000000000001,109.28631912706098
0.0009000000000000002,109.30908673391971
0.0010000000000000002,109.3261826848395
0.0011000000000000003,109.33760774144156
0.0012000000000000003,109.3433630813987
0.0013000000000000004,109.34345029834121
0.0014000000000000004,109.33787140173044
0.0015000000000000005,109.32662881669977
0.0016000000000000005,109.30972538386271
0.0017000000000000006,109.28716435908859
0.0018000000000000006,109.2589494132454
0.0019000000000000006,109.2250846319105
0.0020000000000000005,109.18557451504832
0.0021000000000000003,109.14042397665557
0.0022,109.08963834437435
0.0023,109.03322335907227
0.0024,108.9711851743905
0.0024999999999999996,108.9035303562591
0.0025999999999999994,108.83026588238044
0.0026999999999999993,108.75139914167957
0.002799999999999999,108.66693793372318
0.002899999999999999,108.57689046810562
0.0029999999999999988,108.48126536380295
0.0030999999999999986,108.38007164849503
0.0031999999999999984,108.27331875785539
0.0032999999999999982,108.16101653480884
0.003399999999999998,108.04317522875753
0.003499999999999998,107.91980549477483
0.0035999999999999977,107.79091839276747
0.0036999999999999976,107.6565253866058
0.0037999999999999974,107.5166383432224
0.0038999999999999972,107.37126953167919
0.0039999999999999975,107.22043162220274
0.004099999999999998,107.06413768518817
0.004199999999999998,106.9024011901718
0.004299999999999998,106.73523600477226
0.0043999999999999985,106.56265639360058
0.004499999999999999,106.38467701713877
0.004599999999999999,106.2013129305879
0.004699999999999999,106.01257958268465
0.0048,105.81849281448737
0.0049,105.61906885813112
0.005,105.41432433555217
0.0051,105.204276257182
0.005200000000000001,104.9889420206106
0.005300000000000001,104.76833940921952
0.005400000000000001,104.54248659078489
0.005500000000000001,104.31140211604983
0.005600000000000002,104.0751049172673
0.005700000000000002,103.83361430671272
0.005800000000000002,103.58694997516709
0.0059000000000000025,103.33513199037014
0.006000000000000003,103.07818079544413
0.006100000000000003,102.81611720728823
0.006200000000000003,102.54896241494355
0.0063000000000000035,102.27673797792907
0.006400000000000004,101.9994658245485
0.006500000000000004,101.71716825016829
0.006600000000000004,101.42986791546697
0.0067000000000000046,101.13758784465574
0.006800000000000005,100.84035142367063
0.006900000000000005,100.53818239833649
0.007000000000000005,100.23110487250277
0.007100000000000006,99.91914330615103
0.007200000000000006,99.60232251347495
0.007300000000000006,99.28066766093241
0.007400000000000006,98.95420426527022
0.007500000000000007,98.62295819152104
0.007600000000000007,98.28695565097368
0.007700000000000007,97.94622319911578
0.0078000000000000074,97.60078773354992
0.007900000000000008,97.25067649188288
0.008000000000000007,96.89591704958836
0.008100000000000007,96.53653731784333
0.008200000000000006,96.17256554133805
0.008300000000000005,95.80403029606028
0.008400000000000005,95.43096048705343
0.008500000000000004,95.05338534614917
0.008600000000000003,94.67133442967436
0.008700000000000003,94.28483761613285
0.008800000000000002,93.89392510386217
0.008900000000000002,93.49862740866516
0.009000000000000001,93.09897536141676
0.0091,92.69500010564673
0.0092,92.28673309509745
0.0093,91.87420609125782
0.009399999999999999,91.4574511608733
0.009499999999999998,91.036500673432
0.009599999999999997,90.61138729862732
0.009699999999999997,90.18214400379725
0.009799999999999996,89.7488040513404
0.009899999999999996,89.31140099610941
0.009999999999999995,88.86996868278118
0.010099999999999994,88.42454124320503
0.010199999999999994,87.97515309372815
0.010299999999999993,87.5218389324995
0.010399999999999993,87.06463373675133
0.010499999999999992,86.6035727600592
0.010599999999999991,86.13869152958097
0.01069999999999999,85.67002584327383
0.01079999999999999,85.1976117670912
0.01089999999999999,84.72148563215828
0.010999999999999989,84.2416840319272
0.011099999999999988,83.75824381931216
0.011199999999999988,83.27120210380426
0.011299999999999987,82.7805962485664
0.011399999999999987,82.286463867509
0.011499999999999986,81.78884282234597
0.011599999999999985,81.28777121963162
0.011699999999999985,80.7832874077791
0.011799999999999984,80.2754299740595
0.011899999999999984,79.76423774158323
0.011999999999999983,79.24974976626285
0.012099999999999982,78.73200533375814
0.012199999999999982,78.21104395640342
0.012299999999999981,77.68690537011764
0.01239999999999998,77.15962953129709
0.01249999999999998,76.62925661369134
0.01259999999999998,76.09582700526259
0.012699999999999979,75.55938130502825
0.012799999999999978,75.01996031988797
0.012899999999999977,74.47760506143409
0.012999999999999977,73.93235674274719
0.013099999999999976,73.38425677517559
0.013199999999999976,72.83334676510009
0.013299999999999975,72.27966851068386
0.013399999999999974,71.72326399860769
0.013499999999999974,71.16417540079077
0.013599999999999973,70.60244507109762
0.013699999999999973,70.03811554203114
0.013799999999999972,69.47122952141196
0.013899999999999971,68.90182988904493
0.01399999999999997,68.3299596933722
0.01409999999999997,67.75566214811377
0.01419999999999997,67.1789806288956
0.014299999999999969,66.59995866986544
0.014399999999999968,66.01863996029687
0.014499999999999968,65.43506834118165
0.014599999999999967,64.84928780181069
0.014699999999999967,64.26134247634386
0.014799999999999966,63.6712766403693
0.014899999999999965,63.07913470745182
0.014999999999999965,62.484961225671285
0.015099999999999964,61.88880087415088
0.015199999999999964,61.29069845957591
0.015299999999999963,60.69069891270296
0.015399999999999962,60.088847284860016
0.015499999999999962,59.48518874443768
0.015599999999999961,58.87976857337205
0.01569999999999996,58.27263216361888
0.01579999999999996,57.66382501362033
0.01589999999999996,57.05339272476339
0.01599999999999996,56.4413809978313
0.016099999999999958,55.82783562944777
0.016199999999999957,55.21280250851415
0.016299999999999957,54.5963276126402
0.016399999999999956,53.97845700456859
0.016499999999999956,53.35923682859332
0.016599999999999955,52.73871330697254
0.016699999999999954,52.11693273633574
0.016799999999999954,51.49394148408621
0.016899999999999953,50.86978598479823
0.016999999999999953,50.24451273661001
0.017099999999999952,49.61816829761232
0.01719999999999995,48.990799282232956
0.01729999999999995,48.36245235761793
0.01739999999999995,47.73317424000889
0.01749999999999995,47.10301169111767
0.01759999999999995,46.47201151449794
0.01769999999999995,45.84022055191449
0.017799999999999948,45.20768567971012
0.017899999999999947,44.574453805170755
0.017999999999999947,43.940571862888795
0.018099999999999946,43.306086811125404
0.018199999999999945,42.671045628171285
0.018299999999999945,42.03549530870729
0.018399999999999944,41.399482860164
0.018499999999999944,40.763055299081586
0.018599999999999943,40.12625964746958
0.018699999999999942,39.48914292916706
0.018799999999999942,38.85175216620369
0.01889999999999994,38.2141343751616
0.01899999999999994,37.576336563538646
0.01909999999999994,36.93840572611336
0.01919999999999994,36.300388841311495
0.01929999999999994,35.66233286757515
0.019399999999999938,35.024284739733915
0.019499999999999938,34.3862913653792
0.019599999999999937,33.748399621241305
0.019699999999999936,33.1106563495699
0.019799999999999936,32.47310835451836
0.019899999999999935,31.83580239853162
0.019999999999999934,31.198785198738555
0.020099999999999934,30.562103423348823
0.020199999999999933,29.925803688054277
0.020299999999999933,29.289932552435857
0.020399999999999932,28.65453651637526
0.02049999999999993,28.019662016472985
0.02059999999999993,27.385355422471687
0.02069999999999993,26.751663033686118
0.02079999999999993,26.118631075439474
0.02089999999999993,25.486305695506566
0.02099999999999993,24.854732960563947
0.021099999999999928,24.223958852647677
0.021199999999999927,23.594029265618502
0.021299999999999927,22.96499000163503
0.021399999999999926,22.33688676763522
0.021499999999999925,21.70976517182625
0.021599999999999925,21.083670720183193
0.021699999999999924,20.458648812956802
0.021799999999999924,19.834744741190683
0.021899999999999923,19.212003683247794
0.021999999999999922,18.590470701347314
0.022099999999999922,17.970190738111327
0.02219999999999992,17.351208613121997
0.02229999999999992,16.733569019489618
0.02239999999999992,16.117316520431608
0.02249999999999992,15.502495545862573
0.02259999999999992,14.889150388996296
0.022699999999999918,14.277325202959197
0.022799999999999918,13.667063997416092
0.022899999999999917,13.058410635208215
0.022999999999999916,12.451408829003842
0.023099999999999916,11.846102137961957
0.023199999999999915,11.242533964408757
0.023299999999999915,10.640747550528111
0.023399999999999914,10.04078597506512
0.023499999999999913,9.442692150043882
0.023599999999999913,8.846508817499725
0.023699999999999912,8.252278546225456
0.02379999999999991,7.660043728532586
0.02389999999999991,7.069846577027544
0.02399999999999991,6.48172912140311
0.02409999999999991,5.895733205245299
0.02419999999999991,5.311900482855974
0.02429999999999991,4.730272416091711
0.024399999999999908,4.150890271218576
0.024499999999999907,3.5737951157836196
0.024599999999999907,2.999027815503184
0.024699999999999906,2.426629031167921
0.024799999999999905,1.8566392155654148
0.024899999999999905,1.2890986104201119
0.024999999999999904,0.7240472433508938
0.025099999999999904,0.1615249248469155
0.025199999999999903,-0.39842875473861294
0.025299999999999902,-0.9557744281760634
0.025399999999999902,-1.5104729543282893
0.0254999999999999,-2.062485421100771
0.0255999999999999,-2.6117731483723983
0.0256999999999999,-3.1582976909069824
0.0257999999999999,-3.702020841245125
0.0258999999999999,-4.242904632576154
0.025999999999999898,-4.780911341590164
0.026099999999999898,-5.316003491309444
0.026199999999999897,-5.848143853899771
0.026299999999999896,-6.3772954534606425
0.026399999999999896,-6.9034215687946014
0.026499999999999895,-7.42648573615545
0.026599999999999895,-7.946451751975139
0.026699999999999894,-8.463283675568698
0.026799999999999893,-8.976945831817634
0.026899999999999893,-9.487402813831304
0.026999999999999892,-9.994619485585783
0.02709999999999989,-10.498560984540433
0.02719999999999989,-10.999192724231872
0.02729999999999989,-11.496480396844966
0.02739999999999989,-11.990389975760612
0.02749999999999989,-12.48088771808059
0.02759999999999989,-12.967940167128631
0.027699999999999888,-13.451514154928013
0.027799999999999887,-13.931576804655137
0.027899999999999887,-14.408095533069185
0.027999999999999886,-14.88103805291747
0.028099999999999885,-15.350372375316383
0.028199999999999885,-15.816066812107627
0.028299999999999884,-16.27808997818977
0.028399999999999884,-16.736410793824753
0.028499999999999883,-17.19099848691929
0.028599999999999882,-17.641822595280765
0.028699999999999882,-18.088852968847835
0.02879999999999988,-18.53205977189519
0.02889999999999988,-18.971413485212494
0.02899999999999988,-19.406884908257265
0.02909999999999988,-19.838445161281626
0.02919999999999988,-20.266065687432608
0.029299999999999878,-20.689718254825948
0.029399999999999878,-21.109374958593285
0.029499999999999877,-21.525008222902397
0.029599999999999876,-21.936590802950406
0.029699999999999876,-22.344095786930083
0.029799999999999875,-22.7474965979685
0.029899999999999875,-23.146766996038366
0.029999999999999874,-23.54188107984195
0.030099999999999873,-23.9328132886669
0.030199999999999873,-24.319538404214498
0.030299999999999872,-24.70203155239959
0.03039999999999987,-25.08026820512268
0.03049999999999987,-25.454224182013398
0.03059999999999987,-25.82387565214567
0.03069999999999987,-26.18919913572438
0.03079999999999987,-26.550171505743208
0.03089999999999987,-26.906769989613792
0.030999999999999868,-27.258972170765773
0.031099999999999867,-27.606755990217835
0.031199999999999867,-27.95009974811972
0.03129999999999987,-28.288982105264715
0.03139999999999987,-28.623382084572683
0.031499999999999875,-28.953279072543847
0.03159999999999988,-29.278652820682794
0.03169999999999988,-29.59948344689255
0.031799999999999884,-29.91575143683908
0.03189999999999989,-30.227437645285782
0.03199999999999989,-30.53452329739769
0.03209999999999989,-30.836989990015883
0.032199999999999895,-31.134819692901413
0.0322999999999999,-31.427994749948958
0.0323999999999999,-31.716497880370067
0.032499999999999904,-32.000312179845935
0.03259999999999991,-32.27942112164947
0.03269999999999991,-32.55380855773679
0.03279999999999991,-32.823458719807924
0.032899999999999915,-33.088356220336664
0.03299999999999992,-33.34848605356958
0.03309999999999992,-33.603833596493956
0.033199999999999924,-33.854384609774705
0.03329999999999993,-34.100125238660326
0.03339999999999993,-34.341042013857376
0.03349999999999993,-34.57712185237403
0.033599999999999935,-34.808352058332105
0.03369999999999994,-35.03472032374785
0.03379999999999994,-35.2562147292813
0.033899999999999944,-35.47282374495416
0.03399999999999995,-35.68453623083621
0.03409999999999995,-35.89134143770009
0.03419999999999995,-36.093229007644595
0.034299999999999956,-36.29018897468625
0.03439999999999996,-36.48221176531919
0.03449999999999996,-36.669288199043486
0.034599999999999964,-36.85140948886149
0.03469999999999997,-37.02856724174262
0.03479999999999997,-37.20075345905621
0.03489999999999997,-37.36796053697259
0.034999999999999976,-37.530181266832315
0.03509999999999998,-37.687408835483545
0.03519999999999998,-37.83963682558742
0.035299999999999984,-37.98685921589175
0.03539999999999999,-38.12907038147257
0.03549999999999999,-38.266265093943936
0.03559999999999999,-38.39843852163566
0.035699999999999996,-38.52558622973929
0.0358,-38.64770418042194
0.0359,-38.76478873290837
0.036000000000000004,-38.87683664353101
0.03610000000000001,-38.98384506574815
0.03620000000000001,-39.08581155013022
0.03630000000000001,-39.182734044314
0.036400000000000016,-39.274610892925246
0.03650000000000002,-39.3614408374691
0.03660000000000002,-39.44322301618897
0.036700000000000024,-39.51995696389335
0.03680000000000003,-39.59164261175091
0.03690000000000003,-39.65828028705387
0.03700000000000003,-39.71987071294954
0.037100000000000036,-39.77641500814016
0.03720000000000004,-39.82791468655113
0.03730000000000004,-39.8743716569675
0.037400000000000044,-39.91578822263895
0.03750000000000005,-39.95216708085312
0.03760000000000005,-39.98351132247749
0.03770000000000005,-40.009824431469795
0.037800000000000056,-40.031110284357005
0.03790000000000006,-40.047373149682926
0.03800000000000006,-40.058617687424515
0.038100000000000064,-40.06484894837696
0.03820000000000007,-40.066072373507595
0.03830000000000007,-40.062293793278585
0.03840000000000007,-40.053519426938664
0.038500000000000076,-40.03975588178385
0.03860000000000008,-40.02101015238722
0.03870000000000008,-39.997289619797904
0.038800000000000084,-39.96860205070917
0.03890000000000009,-39.934955596596026
0.03900000000000009,-39.896358792821964
0.03910000000000009,-39.85282055771548
0.039200000000000096,-39.8043501916158
0.0393000000000001,-39.75095737588864
0.0394000000000001,-39.69265217191126
0.039500000000000104,-39.629445020027916
0.03960000000000011,-39.561346738474626
0.03970000000000011,-39.48836852227438
0.03980000000000011,-39.41052194210242
0.039900000000000116,-39.32781894312157
0.04000000000000012,-39.24027184378813
0.04010000000000012,-39.14789333462798
0.040200000000000125,-39.05069647698348
0.04030000000000013,-38.9486947017309
0.04040000000000013,-38.841901807968554
0.04050000000000013,-38.73033196167604
0.040600000000000136,-38.61399969434441
0.04070000000000014,-38.49291990157734
0.04080000000000014,-38.36710784166384
0.040900000000000145,-38.23657913412208
0.04100000000000015,-38.10134975821501
0.04110000000000015,-37.96143605143732
0.04120000000000015,-37.81685470797458
0.041300000000000156,-37.66762277713385
0.04140000000000016,-37.5137576617468
0.04150000000000016,-37.35527711654473
0.041600000000000165,-37.19219924650593
0.04170000000000017,-37.02454250517581
0.04180000000000017,-36.8523256929595
0.04190000000000017,-36.67556795538694
0.042000000000000176,-36.494288781351614
0.04210000000000018,-36.30850800132158
0.04220000000000018,-36.11824578552441
0.042300000000000185,-35.92352264210511
0.04240000000000019,-35.72435941525783
0.04250000000000019,-35.52077728333114
0.04260000000000019,-35.31279775690749
0.042700000000000196,-35.1004426768563
0.0428000000000002,-34.88373421236162
0.0429000000000002,-34.662694858924226
0.043000000000000205,-34.43734743633793
0.04310000000000021,-34.20771508664101
0.04320000000000021,-33.97382127204246
0.04330000000000021,-33.73568977282316
0.043400000000000216,-33.4933446852125
0.04350000000000022,-33.24681041924073
0.04360000000000022,-32.99611169656628
0.043700000000000225,-32.74127354827971
0.04380000000000023,-32.48232131268311
0.04390000000000023,-32.21928063304591
0.04400000000000023,-31.95217745533722
0.044100000000000236,-31.681038025934747
0.04420000000000024,-31.405888889310205
0.04430000000000024,-31.126756885692288
0.044400000000000245,-30.84366914870622
0.04450000000000025,-30.556653102991366
0.04460000000000025,-30.26573646179579
0.04470000000000025,-29.970947224549217
0.044800000000000256,-29.67231367441351
0.04490000000000026,-29.369864375811872
0.04500000000000026,-29.06362817193609
0.045100000000000265,-28.753634182232496
0.04520000000000027,-28.439911799867147
0.04530000000000027,-28.122490689169638
0.045400000000000273,-27.801400783056373
0.045500000000000276,-27.47667228043364
0.04560000000000028,-27.14833564357984
0.04570000000000028,-26.816421595508153
0.045800000000000285,-26.480961117309548
0.04590000000000029,-26.141985445475388
0.04600000000000029,-25.79952606920165
0.046100000000000294,-25.45361472767342
0.046200000000000296,-25.10428340733053
0.0463000000000003,-24.75156433911475
0.0464000000000003,-24.39548999569854
0.046500000000000305,-24.036093088695203
0.04660000000000031,-23.673406565851714
0.04670000000000031,-23.30746360822311
0.046800000000000314,-22.938297627330087
0.046900000000000316,-22.56594226229872
0.04700000000000032,-22.190431376983753
0.04710000000000032,-21.811799057074545
0.047200000000000325,-21.430079607185036
0.04730000000000033,-21.045307547927095
0.04740000000000033,-20.657517612967986
0.047500000000000334,-20.266744746071684
0.047600000000000336,-19.87302409812568
0.04770000000000034,-19.476391024151038
0.04780000000000034,-19.076881080298755
0.047900000000000345,-18.674530020830414
0.04800000000000035,-18.26937379508483
0.04810000000000035,-17.861448544430395
0.048200000000000354,-17.450790599203096
0.04830000000000036,-17.03743647563098
0.04840000000000036,-16.621422872745324
0.04850000000000036,-16.202786669278108
0.048600000000000365,-15.781564920546877
0.04870000000000037,-15.35779485532688
0.04880000000000037,-14.931513872710381
0.048900000000000374,-14.502759538954328
0.04900000000000038,-14.07156958431564
0.04910000000000038,-13.637981899875133
0.04920000000000038,-13.202034534349552
0.049300000000000385,-12.763765690893464
0.04940000000000039,-12.323213723889022
0.04950000000000039,-11.880417135726404
0.049600000000000394,-11.435414573572658
0.0497000000000004,-10.988244826131655
0.0498000000000004,-10.538946820393406
0.0499000000000004,-10.087559618374431
0.050000000000000405,-9.634122413848395
0.05010000000000041,-9.178674529068347
0.05020000000000041,-8.721255411479607
0.050300000000000414,-8.261904630424931
0.05040000000000042,-7.800661873840754
0.05050000000000042,-7.33756694494643
0.05060000000000042,-6.872659758925004
0.050700000000000425,-6.405980339597446
0.05080000000000043,-5.937568816089191
0.05090000000000043,-5.467465419490285
0.051000000000000434,-4.995710479509163
0.05110000000000044,-4.522344421119643
